**** COMMENT ****

**** INPUTS ****
kVp [kV] hvMIN [keV] Dhv [keV]
90  9  0.5
Angle [deg.]
30
t_AIR t_BE t_AL t_CU t_SN t_W t_Ta t_Ti t_C t_Wa [mm]
1000  0  2.5  0  0  0  0  0  0  0
Nf P
0.68  0.33
****CALCULATED OUTPUTS ****
Brem[uGy/mAs@1m] Char[uGy/mAs@1m]
92.48654  1.958391
HVL1[cm AL] HVL2[cm AL] HVL1[cmCu] HVL2[cmCu] MeanE[keV] EffEAl[keV] EffECu[keV]
0.2722726  0.4317083  0.0092678  0.0176926  45.20807  32.21292  33.00413
**** CALCULATED SPECTRUM ****
Energy[keV]  N[keV cm^2 mAs]^-1 @ 1 meter
9  0.0005034
9.5  0.0137987
10  0.3799655
10.5  2.682213
11  19.55064
11.5  85.40287
12  374.412
12.5  1102.958
13  3258.203
13.5  7484.332
14  17271.74
14.5  32202.24
15  60188.73
15.5  97253.75
16  157587.1
16.5  227403.8
17  328619.5
17.5  435761.1
18  578654.7
18.5  723899.9
19  906175.6
19.5  1.080674e+6
20  1.290718e+6
20.5  1.483651e+6
21  1.707204e+6
21.5  1.906418e+6
22  2.131036e+6
22.5  2.326840e+6
23  2.542684e+6
23.5  2.727556e+6
24  2.925837e+6
24.5  3.081003e+6
25  3.246523e+6
25.5  3.394669e+6
26  3.549729e+6
26.5  3.670661e+6
27  3.796900e+6
27.5  3.899386e+6
28  4.004241e+6
28.5  4.082121e+6
29  4.164305e+6
29.5  4.214722e+6
30  4.267631e+6
30.5  4.304481e+6
31  4.345712e+6
31.5  4.370133e+6
32  4.396392e+6
32.5  4.407428e+6
33  4.417280e+6
33.5  4.413793e+6
34  4.411822e+6
34.5  4.398278e+6
35  4.384081e+6
35.5  4.361254e+6
36  4.338940e+6
36.5  4.310944e+6
37  4.282115e+6
37.5  4.247259e+6
38  4.214504e+6
38.5  4.172733e+6
39  4.132462e+6
39.5  4.089743e+6
40  4.048449e+6
40.5  4.001166e+6
41  3.955373e+6
41.5  3.907040e+6
42  3.857833e+6
42.5  3.806899e+6
43  3.757448e+6
43.5  3.706675e+6
44  3.655678e+6
44.5  3.602974e+6
45  3.550954e+6
45.5  3.499831e+6
46  3.448351e+6
46.5  3.395799e+6
47  3.345029e+6
47.5  3.291133e+6
48  3.238652e+6
48.5  3.187369e+6
49  3.137201e+6
49.5  3.084834e+6
50  3.033805e+6
50.5  2.983496e+6
51  2.932600e+6
51.5  2.881684e+6
52  2.832040e+6
52.5  2.783479e+6
53  2.734794e+6
53.5  2.686417e+6
54  2.638589e+6
54.5  2.591632e+6
55  2.544460e+6
55.5  2.497454e+6
56  2.451751e+6
56.5  2.405499e+6
57  2.360349e+6
57.5  2.316124e+6
58  6.111178e+6
58.5  2.228583e+6
59  2.185535e+6
59.5  8.837672e+6
60  2.100166e+6
60.5  2.057945e+6
61  2.016699e+6
61.5  1.976305e+6
62  1.935754e+6
62.5  1.895511e+6
63  1.855650e+6
63.5  1.817585e+6
64  1.779263e+6
64.5  1.740578e+6
65  1.702845e+6
65.5  1.665333e+6
66  1.628650e+6
66.5  1.592105e+6
67  3.768143e+6
67.5  1.519708e+6
68  1.484302e+6
68.5  1.449949e+6
69  1.991605e+6
69.5  1.380291e+6
70  1.302846e+6
70.5  1.271532e+6
71  1.239896e+6
71.5  1.209092e+6
72  1.178450e+6
72.5  1.148361e+6
73  1.117960e+6
73.5  1.088035e+6
74  1.058594e+6
74.5  1.028396e+6
75  998809.4
75.5  969457.7
76  939954.5
76.5  910528.4
77  881695.2
77.5  853606.6
78  824273.4
78.5  795219.4
79  766757
79.5  738201.9
80  709032.9
80.5  680403.8
81  651857.3
81.5  623452.3
82  594666.3
82.5  566246.9
83  537906.8
83.5  508073.7
84  478856.6
84.5  450355.8
85  419167.7
85.5  387185.3
86  355845.6
86.5  325378.7
87  294009.4
87.5  263251.6
88  233112
88.5  184016.2
89  121376
89.5  60064.63
90  0
