**** COMMENT ****

**** INPUTS ****
kVp [kV] hvMIN [keV] Dhv [keV]
90  9  0.5
Angle [deg.]
30
t_AIR t_BE t_AL t_CU t_SN t_W t_Ta t_Ti t_C t_Wa [mm]
1000  0  1  0  0  0  0  0  0  0
Nf P
0.68  0.33
****CALCULATED OUTPUTS ****
Brem[uGy/mAs@1m] Char[uGy/mAs@1m]
188.4924  2.190928
HVL1[cm AL] HVL2[cm AL] HVL1[cmCu] HVL2[cmCu] MeanE[keV] EffEAl[keV] EffECu[keV]
0.1472411  0.2702904  0.0047039  0.0095421  40.37572  25.50767  25.92318
**** CALCULATED SPECTRUM ****
Energy[keV]  N[keV cm^2 mAs]^-1 @ 1 meter
9  957.5407
9.5  3833.635
10  15418.53
10.5  29781.49
11  59397.53
11.5  104310.7
12  183846.6
12.5  283297
13  437762.2
13.5  623539.3
14  892272.3
14.5  1.160128e+6
15  1.512146e+6
15.5  1.847657e+6
16  2.263976e+6
16.5  2.630561e+6
17  3.060858e+6
17.5  3.423929e+6
18  3.835503e+6
18.5  4.180989e+6
19  4.560480e+6
19.5  4.865453e+6
20  5.198647e+6
20.5  5.455265e+6
21  5.730524e+6
21.5  5.937281e+6
22  6.157731e+6
22.5  6.314422e+6
23  6.480322e+6
23.5  6.594963e+6
24  6.711554e+6
24.5  6.773245e+6
25  6.839978e+6
25.5  6.882151e+6
26  6.924884e+6
26.5  6.932510e+6
27  6.942313e+6
27.5  6.930412e+6
28  6.917844e+6
28.5  6.883083e+6
29  6.853088e+6
29.5  6.797016e+6
30  6.744375e+6
30.5  6.679757e+6
31  6.621948e+6
31.5  6.549498e+6
32  6.480348e+6
32.5  6.403878e+6
33  6.326575e+6
33.5  6.242711e+6
34  6.162070e+6
34.5  6.075113e+6
35  5.988434e+6
35.5  5.897242e+6
36  5.807964e+6
36.5  5.719303e+6
37  5.630662e+6
37.5  5.539774e+6
38  5.452706e+6
38.5  5.360534e+6
39  5.271307e+6
39.5  5.182070e+6
40  5.095582e+6
40.5  5.006581e+6
41  4.920302e+6
41.5  4.834656e+6
42  4.748699e+6
42.5  4.663284e+6
43  4.580394e+6
43.5  4.498415e+6
44  4.416805e+6
44.5  4.335533e+6
45  4.255666e+6
45.5  4.178290e+6
46  4.101021e+6
46.5  4.024644e+6
47  3.950849e+6
47.5  3.875401e+6
48  3.802038e+6
48.5  3.730485e+6
49  3.660632e+6
49.5  3.590065e+6
50  3.521396e+6
50.5  3.454596e+6
51  3.387423e+6
51.5  3.321204e+6
52  3.256726e+6
52.5  3.193761e+6
53  3.130918e+6
53.5  3.069312e+6
54  3.008569e+6
54.5  2.949647e+6
55  2.890685e+6
55.5  2.832691e+6
56  2.776351e+6
56.5  2.719566e+6
57  2.664201e+6
57.5  2.610051e+6
58  6.875570e+6
58.5  2.503784e+6
59  2.451942e+6
59.5  9.912028e+6
60  2.350449e+6
60.5  2.300399e+6
61  2.251557e+6
61.5  2.203779e+6
62  2.155940e+6
62.5  2.108984e+6
63  2.062544e+6
63.5  2.017782e+6
64  1.972840e+6
64.5  1.928383e+6
65  1.885052e+6
65.5  1.841660e+6
66  1.799271e+6
66.5  1.757473e+6
67  4.156163e+6
67.5  1.674841e+6
68  1.634496e+6
68.5  1.595374e+6
69  2.189582e+6
69.5  1.516272e+6
70  1.430038e+6
70.5  1.394820e+6
71  1.359290e+6
71.5  1.324446e+6
72  1.289836e+6
72.5  1.256140e+6
73  1.222142e+6
73.5  1.188707e+6
74  1.155839e+6
74.5  1.122185e+6
75  1.089238e+6
75.5  1.056801e+6
76  1.024225e+6
76.5  991558.2
77  959575.9
77.5  928442
78  895992.7
78.5  864060.8
79  832797
79.5  801457.9
80  769477.7
80.5  738108.9
81  706855.1
81.5  675642.9
82  644055.8
82.5  613027.7
83  582110.5
83.5  549714.5
84  517997.9
84.5  486970.2
85  453062.9
85.5  418324.9
86  384309
86.5  351262.9
87  317269.5
87.5  283963.4
88  251350.6
88.5  198373.5
89  130819.5
89.5  64711.65
90  0
