**** COMMENT ****

**** INPUTS ****
kVp [kV] hvMIN [keV] Dhv [keV]
80  8  0.5
Angle [deg.]
30
t_AIR t_BE t_AL t_CU t_SN t_W t_Ta t_Ti t_C t_Wa [mm]
1000  0  2.5  0  0  0  0  0  0  0
Nf P
0.68  0.33
****CALCULATED OUTPUTS ****
Brem[uGy/mAs@1m] Char[uGy/mAs@1m]
76.85047  0.6376741
HVL1[cm AL] HVL2[cm AL] HVL1[cmCu] HVL2[cmCu] MeanE[keV] EffEAl[keV] EffECu[keV]
0.2450423  0.3752069  0.0081341  0.0142906  42.10923  30.91488  31.51691
**** CALCULATED SPECTRUM ****
Energy[keV]  N[keV cm^2 mAs]^-1 @ 1 meter
8  1.802249e-8
8.5  2.964533e-6
9  0.0004911
9.5  0.0133235
10  0.3641369
10.5  2.631859
11  19.50392
11.5  85.4602
12  375.4088
12.5  1103.066
13  3250.294
13.5  7418.685
14  17000.92
14.5  31506.21
15  58508.21
15.5  93977.75
16  151279.2
16.5  217152.8
17  312061.3
17.5  411708.1
18  544399.1
18.5  677543.4
19  844362.7
19.5  1.003176e+6
20  1.192461e+6
20.5  1.365828e+6
21  1.566312e+6
21.5  1.742691e+6
22  1.940635e+6
22.5  2.113506e+6
23  2.301813e+6
23.5  2.460840e+6
24  2.632109e+6
24.5  2.765558e+6
25  2.905889e+6
25.5  3.029332e+6
26  3.161521e+6
26.5  3.261264e+6
27  3.366002e+6
27.5  3.448585e+6
28  3.533130e+6
28.5  3.594020e+6
29  3.658282e+6
29.5  3.694894e+6
30  3.733530e+6
30.5  3.760163e+6
31  3.785930e+6
31.5  3.800036e+6
32  3.816898e+6
32.5  3.816947e+6
33  3.818405e+6
33.5  3.807630e+6
34  3.799895e+6
34.5  3.779929e+6
35  3.761301e+6
35.5  3.735876e+6
36  3.710009e+6
36.5  3.677978e+6
37  3.647734e+6
37.5  3.610591e+6
38  3.574819e+6
38.5  3.534310e+6
39  3.492834e+6
39.5  3.449629e+6
40  3.407089e+6
40.5  3.361853e+6
41  3.316324e+6
41.5  3.267488e+6
42  3.221341e+6
42.5  3.171978e+6
43  3.124034e+6
43.5  3.075086e+6
44  3.026025e+6
44.5  2.975816e+6
45  2.927275e+6
45.5  2.877033e+6
46  2.828157e+6
46.5  2.779162e+6
47  2.729474e+6
47.5  2.678965e+6
48  2.629194e+6
48.5  2.581260e+6
49  2.533228e+6
49.5  2.483937e+6
50  2.436742e+6
50.5  2.388175e+6
51  2.340861e+6
51.5  2.293637e+6
52  2.246387e+6
52.5  2.200252e+6
53  2.155392e+6
53.5  2.109479e+6
54  2.064717e+6
54.5  2.020600e+6
55  1.975855e+6
55.5  1.931496e+6
56  1.887713e+6
56.5  1.845149e+6
57  1.802506e+6
57.5  1.760216e+6
58  2.969428e+6
58.5  1.677928e+6
59  1.637305e+6
59.5  3.776630e+6
60  1.556178e+6
60.5  1.516373e+6
61  1.477500e+6
61.5  1.438131e+6
62  1.399703e+6
62.5  1.362010e+6
63  1.323494e+6
63.5  1.286253e+6
64  1.249396e+6
64.5  1.212486e+6
65  1.175466e+6
65.5  1.139236e+6
66  1.104048e+6
66.5  1.067843e+6
67  1.752817e+6
67.5  997384.6
68  961882.2
68.5  927207
69  1.080845e+6
69.5  857891.1
70  806406.3
70.5  774131.6
71  740342.3
71.5  707464.3
72  674815.9
72.5  641732.1
73  608407.5
73.5  575198.8
74  542118.1
74.5  508144.7
75  474920.7
75.5  439502.5
76  402138
76.5  365715.5
77  330029.7
77.5  293699.9
78  258170.3
78.5  216413.7
79  142592.7
79.5  70470.22
80  0
