**** COMMENT ****

**** INPUTS ****
kVp [kV] hvMIN [keV] Dhv [keV]
90  9  0.5
Angle [deg.]
30
t_AIR t_BE t_AL t_CU t_SN t_W t_Ta t_Ti t_C t_Wa [mm]
1000  0  0  0  0  0  0  0  0  0
Nf P
0.68  0.33
****CALCULATED OUTPUTS ****
Brem[uGy/mAs@1m] Char[uGy/mAs@1m]
863.7394  2.361174
HVL1[cm AL] HVL2[cm AL] HVL1[cmCu] HVL2[cmCu] MeanE[keV] EffEAl[keV] EffECu[keV]
0.025084  0.0576668  0.0008579  0.001796  31.28457  13.79049  6.640913
**** CALCULATED SPECTRUM ****
Energy[keV]  N[keV cm^2 mAs]^-1 @ 1 meter
9  1.470015e+7
9.5  1.632272e+7
10  1.820715e+7
10.5  1.482228e+7
11  1.245967e+7
11.5  1.191883e+7
12  1.144263e+7
12.5  1.144715e+7
13  1.148361e+7
13.5  1.189427e+7
14  1.237671e+7
14.5  1.265472e+7
15  1.297118e+7
15.5  1.315521e+7
16  1.337949e+7
16.5  1.345495e+7
17  1.355012e+7
17.5  1.353243e+7
18  1.353394e+7
18.5  1.345900e+7
19  1.339294e+7
19.5  1.326607e+7
20  1.316022e+7
20.5  1.299586e+7
21  1.284696e+7
21.5  1.266195e+7
22  1.249225e+7
22.5  1.228509e+7
23  1.209111e+7
23.5  1.188059e+7
24  1.167361e+7
24.5  1.145161e+7
25  1.124119e+7
25.5  1.102407e+7
26  1.081162e+7
26.5  1.059224e+7
27  1.038056e+7
27.5  1.016875e+7
28  9.960270e+6
28.5  9.750968e+6
29  9.552466e+6
29.5  9.347264e+6
30  9.150503e+6
30.5  8.953384e+6
31  8.768709e+6
31.5  8.577294e+6
32  8.393304e+6
32.5  8.215140e+6
33  8.038553e+6
33.5  7.865880e+6
34  7.699557e+6
34.5  7.534749e+6
35  7.372302e+6
35.5  7.211195e+6
36  7.054248e+6
36.5  6.905422e+6
37  6.758135e+6
37.5  6.613240e+6
38  6.474245e+6
38.5  6.334803e+6
39  6.199994e+6
39.5  6.067943e+6
40  5.940147e+6
40.5  5.813590e+6
41  5.691080e+6
41.5  5.572423e+6
42  5.454171e+6
42.5  5.338742e+6
43  5.226882e+6
43.5  5.118110e+6
44  5.010354e+6
44.5  4.904899e+6
45  4.801562e+6
45.5  4.702184e+6
46  4.603404e+6
46.5  4.507315e+6
47  4.414526e+6
47.5  4.321464e+6
48  4.231080e+6
48.5  4.143054e+6
49  4.057252e+6
49.5  3.972062e+6
50  3.889255e+6
50.5  3.809301e+6
51  3.729184e+6
51.5  3.650858e+6
52  3.574668e+6
52.5  3.500354e+6
53  3.426387e+6
53.5  3.354435e+6
54  3.283613e+6
54.5  3.215396e+6
55  3.147295e+6
55.5  3.080824e+6
56  3.016290e+6
56.5  2.951408e+6
57  2.888202e+6
57.5  2.826445e+6
58  7.437573e+6
58.5  2.705883e+6
59  2.647354e+6
59.5  1.069988e+7
60  2.533664e+6
60.5  2.477705e+6
61  2.423134e+6
61.5  2.369796e+6
62  2.316475e+6
62.5  2.264494e+6
63  2.213135e+6
63.5  2.163352e+6
64  2.113455e+6
64.5  2.064715e+6
65  2.017230e+6
65.5  1.969466e+6
66  1.922836e+6
66.5  1.877155e+6
67  4.436795e+6
67.5  1.786964e+6
68  1.742977e+6
68.5  1.700340e+6
69  2.332383e+6
69.5  1.614289e+6
70  1.521658e+6
70.5  1.483583e+6
71  1.445207e+6
71.5  1.407401e+6
72  1.369883e+6
72.5  1.333555e+6
73  1.296937e+6
73.5  1.260944e+6
74  1.225583e+6
74.5  1.189416e+6
75  1.154028e+6
75.5  1.119359e+6
76  1.084562e+6
76.5  1.049546e+6
77  1.015282e+6
77.5  981942.7
78  947239.7
78.5  913234.9
79  879954.3
79.5  846611.9
80  812610.5
80.5  779273
81  746074.6
81.5  712841.9
82  679240.6
82.5  646342.9
83  613579.8
83.5  579354.2
84  545853.9
84.5  513019.1
85  477169.2
85.5  440463.9
86  404538.5
86.5  369653.1
87  333789.8
87.5  298668.8
88  264295.8
88.5  208562
89  137519.9
89.5  68007.72
90  0
