**** COMMENT ****

**** INPUTS ****
kVp [kV] hvMIN [keV] Dhv [keV]
90  9  0.5
Angle [deg.]
30
t_AIR t_BE t_AL t_CU t_SN t_W t_Ta t_Ti t_C t_Wa [mm]
1000  0  5  0  0  0  0  0  0  0
Nf P
0.68  0.33
****CALCULATED OUTPUTS ****
Brem[uGy/mAs@1m] Char[uGy/mAs@1m]
47.77201  1.624585
HVL1[cm AL] HVL2[cm AL] HVL1[cmCu] HVL2[cmCu] MeanE[keV] EffEAl[keV] EffECu[keV]
0.4208627  0.5836525  0.015826  0.0274414  49.64878  38.7432  39.92178
**** CALCULATED SPECTRUM ****
Energy[keV]  N[keV cm^2 mAs]^-1 @ 1 meter
9  1.723849e-14
9.5  1.166496e-11
10  7.929508e-9
10.5  4.853684e-7
11  0.0000307
11.5  0.0006119
12  0.0122511
12.5  0.1062725
13  0.9244384
13.5  4.709431
14  24.10277
14.5  81.94442
15  279.2871
15.5  718.9766
16  1856.101
16.5  3843.381
17  7969.729
17.5  14032.05
18  24740.85
18.5  38935.37
19  61312.46
19.5  88033.3
20  126590
20.5  169378.6
21  226866.6
21.5  287035.7
22  363530.6
22.5  440711.9
23  534710.5
23.5  626194.7
24  733322.7
24.5  828929.9
25  937615.4
25.5  1.045329e+6
26  1.165466e+6
26.5  1.272040e+6
27  1.388793e+6
27.5  1.495289e+6
28  1.609791e+6
28.5  1.708929e+6
29  1.815388e+6
29.5  1.900437e+6
30  1.990347e+6
30.5  2.069447e+6
31  2.153705e+6
31.5  2.226584e+6
32  2.302819e+6
32.5  2.364588e+6
33  2.427347e+6
33.5  2.476718e+6
34  2.527960e+6
34.5  2.567418e+6
35  2.607078e+6
35.5  2.637640e+6
36  2.668803e+6
36.5  2.691253e+6
37  2.713250e+6
37.5  2.727741e+6
38  2.743493e+6
38.5  2.748578e+6
39  2.754396e+6
39.5  2.756453e+6
40  2.759181e+6
40.5  2.753776e+6
41  2.749035e+6
41.5  2.739376e+6
42  2.728715e+6
42.5  2.714587e+6
43  2.701116e+6
43.5  2.684475e+6
44  2.667273e+6
44.5  2.646623e+6
45  2.626078e+6
45.5  2.604920e+6
46  2.583115e+6
46.5  2.558386e+6
47  2.534637e+6
47.5  2.506455e+6
48  2.479005e+6
48.5  2.452133e+6
49  2.425787e+6
49.5  2.395784e+6
50  2.366513e+6
50.5  2.336714e+6
51  2.306173e+6
51.5  2.274562e+6
52  2.243691e+6
52.5  2.213421e+6
53  2.182795e+6
53.5  2.151431e+6
54  2.120272e+6
54.5  2.088875e+6
55  2.057092e+6
55.5  2.024549e+6
56  1.992873e+6
56.5  1.960564e+6
57  1.928966e+6
57.5  1.897942e+6
58  5.021329e+6
58.5  1.835475e+6
59  1.804278e+6
59.5  7.299566e+6
60  1.740838e+6
60.5  1.709298e+6
61  1.678435e+6
61.5  1.648151e+6
62  1.617605e+6
62.5  1.586652e+6
63  1.555909e+6
63.5  1.527082e+6
64  1.497915e+6
64.5  1.467326e+6
65  1.437457e+6
65.5  1.408165e+6
66  1.379473e+6
66.5  1.350341e+6
67  3.200261e+6
67.5  1.292422e+6
68  1.264017e+6
68.5  1.236430e+6
69  1.700616e+6
69.5  1.180212e+6
70  1.115498e+6
70.5  1.089790e+6
71  1.063752e+6
71.5  1.038726e+6
72  1.013769e+6
72.5  988885.5
73  963681.3
73.5  938836.4
74  914357.4
74.5  889174.1
75  864467.7
75.5  839630.4
76  814627.9
76.5  789924.7
77  765685.4
77.5  742043.6
78  717269.9
78.5  692454.9
79  668121.5
79.5  643674
80  618657.6
80.5  594078.5
81  569538.1
81.5  545272
82  520622.6
82.5  496076.5
83  471566.6
83.5  445563.2
84  420082.6
84.5  395346.7
85  368216.5
85.5  340351.4
86  313013.7
86.5  286407.3
87  258969.8
87.5  232034.3
88  205607.5
88.5  162359.2
89  107127.4
89.5  53049.28
90  0
