**** COMMENT ****

**** INPUTS ****
kVp [kV] hvMIN [keV] Dhv [keV]
90  9  0.5
Angle [deg.]
30
t_AIR t_BE t_AL t_CU t_SN t_W t_Ta t_Ti t_C t_Wa [mm]
1000  0  4  0  0  0  0  0  0  0
Nf P
0.68  0.33
****CALCULATED OUTPUTS ****
Brem[uGy/mAs@1m] Char[uGy/mAs@1m]
59.91066  1.750639
HVL1[cm AL] HVL2[cm AL] HVL1[cmCu] HVL2[cmCu] MeanE[keV] EffEAl[keV] EffECu[keV]
0.3679528  0.5332727  0.0133358  0.0239853  48.15301  36.50679  37.56605
**** CALCULATED SPECTRUM ****
Energy[keV]  N[keV cm^2 mAs]^-1 @ 1 meter
9  2.646450e-10
9.5  4.966669e-8
10  9.363655e-6
10.5  0.0002416
11  0.0064351
11.5  0.0699223
12  0.7625073
12.5  4.294139
13  24.25035
13.5  89.83432
14  334.3294
14.5  893.8529
15  2395.723
15.5  5119.074
16  10969.05
16.5  19658.35
17  35281.21
17.5  55459
18  87300.47
18.5  125336.6
19  180058.7
19.5  240030.3
20  320458.8
20.5  403504
21  508600.2
21.5  612137.3
22  737498.1
22.5  857431.7
23  997672.9
23.5  1.128068e+6
24  1.275490e+6
24.5  1.401482e+6
25  1.540928e+6
25.5  1.674444e+6
26  1.819609e+6
26.5  1.943561e+6
27  2.076606e+6
27.5  2.193984e+6
28  2.317767e+6
28.5  2.420966e+6
29  2.530455e+6
29.5  2.613483e+6
30  2.700424e+6
30.5  2.773837e+6
31  2.851912e+6
31.5  2.915958e+6
32  2.982597e+6
32.5  3.033384e+6
33  3.084190e+6
33.5  3.120691e+6
34  3.158707e+6
34.5  3.184278e+6
35  3.209548e+6
35.5  3.225328e+6
36  3.241480e+6
36.5  3.249389e+6
37  3.256546e+6
37.5  3.256307e+6
38  3.257474e+6
38.5  3.248127e+6
39  3.239660e+6
39.5  3.227667e+6
40  3.216500e+6
40.5  3.197657e+6
41  3.179678e+6
41.5  3.157404e+6
42  3.134096e+6
42.5  3.107784e+6
43  3.082358e+6
43.5  3.054284e+6
44  3.025713e+6
44.5  2.994192e+6
45  2.962938e+6
45.5  2.931538e+6
46  2.899552e+6
46.5  2.865210e+6
47  2.832106e+6
47.5  2.794950e+6
48  2.758749e+6
48.5  2.723324e+6
49  2.688614e+6
49.5  2.650704e+6
50  2.613728e+6
50.5  2.576639e+6
51  2.538845e+6
51.5  2.500329e+6
52  2.462735e+6
52.5  2.425904e+6
53  2.388788e+6
53.5  2.351288e+6
54  2.314108e+6
54.5  2.277072e+6
55  2.239703e+6
55.5  2.201892e+6
56  2.165102e+6
56.5  2.127702e+6
57  2.091150e+6
57.5  2.055296e+6
58  5.431768e+6
58.5  1.983630e+6
59  1.948073e+6
59.5  7.879766e+6
60  1.876534e+6
60.5  1.841044e+6
61  1.806338e+6
61.5  1.772310e+6
62  1.738055e+6
62.5  1.703647e+6
63  1.669510e+6
63.5  1.637251e+6
64  1.604680e+6
64.5  1.571062e+6
65  1.538250e+6
65.5  1.505887e+6
66  1.474209e+6
66.5  1.442297e+6
67  3.416348e+6
67.5  1.378944e+6
68  1.347909e+6
68.5  1.317780e+6
69  1.811528e+6
69.5  1.256505e+6
70  1.186966e+6
70.5  1.159142e+6
71  1.130989e+6
71.5  1.103784e+6
72  1.076683e+6
72.5  1.049830e+6
73  1.022658e+6
73.5  995889.4
74  969530.2
74.5  942445.4
75  915887.9
75.5  889333.1
76  862617.6
76.5  836120.4
77  810135.4
77.5  784803.2
78  758294.8
78.5  731862.8
79  705953.9
79.5  679938.5
80  653336.3
80.5  627210
81  601138.7
81.5  575293.1
82  549064.2
82.5  523035.9
83  497059.8
83.5  469587.2
84  442673
84.5  416494.4
85  387808.3
85.5  358363.7
86  329490.3
86.5  301402
87  272454.5
87.5  244050.5
88  216196.8
88.5  170698.1
89  112614.3
89.5  55751.33
90  0
