**** COMMENT ****

**** INPUTS ****
kVp [kV] hvMIN [keV] Dhv [keV]
100  10  0.5
Angle [deg.]
30
t_AIR t_BE t_AL t_CU t_SN t_W t_Ta t_Ti t_C t_Wa [mm]
1000  0  2.5  0  0  0  0  0  0  0
Nf P
0.68  0.33
****CALCULATED OUTPUTS ****
Brem[uGy/mAs@1m] Char[uGy/mAs@1m]
108.5403  3.741598
HVL1[cm AL] HVL2[cm AL] HVL1[cmCu] HVL2[cmCu] MeanE[keV] EffEAl[keV] EffECu[keV]
0.3001657  0.4891052  0.0105053  0.0216698  48.02303  33.51185  34.51013
**** CALCULATED SPECTRUM ****
Energy[keV]  N[keV cm^2 mAs]^-1 @ 1 meter
10  0.3912271
10.5  2.704203
11  19.3969
11.5  84.58437
12  370.2277
12.5  1093.434
13  3234.906
13.5  7471.179
14  17345.88
14.5  32503.67
15  61102.16
15.5  99259.64
16  161763.5
16.5  234553.1
17  340709.2
17.5  453814.3
18  605612.4
18.5  760593.3
19  956204.6
19.5  1.144656e+6
20  1.372034e+6
20.5  1.583370e+6
21  1.828368e+6
21.5  2.048117e+6
22  2.296482e+6
22.5  2.515748e+6
23  2.756977e+6
23.5  2.964016e+6
24  3.188977e+6
24.5  3.367365e+6
25  3.556564e+6
25.5  3.726256e+6
26  3.906414e+6
26.5  4.049123e+6
27  4.197665e+6
27.5  4.317820e+6
28  4.445396e+6
28.5  4.539506e+6
29  4.637806e+6
29.5  4.703061e+6
30  4.771324e+6
30.5  4.822643e+6
31  4.874728e+6
31.5  4.910620e+6
32  4.948670e+6
32.5  4.968160e+6
33  4.987782e+6
33.5  4.992102e+6
34  4.998122e+6
34.5  4.990009e+6
35  4.981834e+6
35.5  4.963274e+6
36  4.946284e+6
36.5  4.920744e+6
37  4.895158e+6
37.5  4.862318e+6
38  4.831016e+6
38.5  4.791314e+6
39  4.751676e+6
39.5  4.708842e+6
40  4.667549e+6
40.5  4.620858e+6
41  4.574315e+6
41.5  4.523524e+6
42  4.474301e+6
42.5  4.422600e+6
43  4.371137e+6
43.5  4.317707e+6
44  4.265804e+6
44.5  4.211395e+6
45  4.157289e+6
45.5  4.102638e+6
46  4.049465e+6
46.5  3.994502e+6
47  3.939867e+6
47.5  3.883435e+6
48  3.828470e+6
48.5  3.774365e+6
49  3.720585e+6
49.5  3.665341e+6
50  3.611485e+6
50.5  3.557300e+6
51  3.503477e+6
51.5  3.449390e+6
52  3.396627e+6
52.5  3.344607e+6
53  3.292923e+6
53.5  3.241376e+6
54  3.191056e+6
54.5  3.140231e+6
55  3.089747e+6
55.5  3.039237e+6
56  2.990739e+6
56.5  2.941243e+6
57  2.892896e+6
57.5  2.845488e+6
58  1.013283e+7
58.5  2.752546e+6
59  2.706231e+6
59.5  1.545023e+7
60  2.614935e+6
60.5  2.570199e+6
61  2.525751e+6
61.5  2.482291e+6
62  2.439789e+6
62.5  2.396903e+6
63  2.354287e+6
63.5  2.313246e+6
64  2.273089e+6
64.5  2.231828e+6
65  2.190831e+6
65.5  2.151579e+6
66  2.113161e+6
66.5  2.074217e+6
67  6.262066e+6
67.5  1.997553e+6
68  1.960408e+6
68.5  1.923597e+6
69  2.988957e+6
69.5  1.850837e+6
70  1.737790e+6
70.5  1.705570e+6
71  1.673468e+6
71.5  1.642133e+6
72  1.611406e+6
72.5  1.580648e+6
73  1.549984e+6
73.5  1.519642e+6
74  1.489881e+6
74.5  1.460086e+6
75  1.430380e+6
75.5  1.400698e+6
76  1.371587e+6
76.5  1.342754e+6
77  1.314004e+6
77.5  1.285873e+6
78  1.258266e+6
78.5  1.230049e+6
79  1.201922e+6
79.5  1.174327e+6
80  1.147252e+6
80.5  1.119901e+6
81  1.092630e+6
81.5  1.066251e+6
82  1.040354e+6
82.5  1.013730e+6
83  987175.5
83.5  960790.3
84  934904.1
84.5  908841.8
85  882844.5
85.5  857364.4
86  832353
86.5  806759.2
87  781218.7
87.5  756086.7
88  731415.1
88.5  705793.7
89  680237
89.5  655339.6
90  630895.2
90.5  605319.2
91  579801.8
91.5  554938.6
92  530523.8
92.5  504719.7
93  478972.7
93.5  453727.6
94  428949.7
94.5  401140.8
95  373367.9
95.5  345997.7
96  319134.1
96.5  292129.6
97  265177.6
97.5  238740.1
98  212790.7
98.5  158766.1
99  104832.9
99.5  51938.66
100  0
