**** COMMENT ****

**** INPUTS ****
kVp [kV] hvMIN [keV] Dhv [keV]
90  9  0.5
Angle [deg.]
30
t_AIR t_BE t_AL t_CU t_SN t_W t_Ta t_Ti t_C t_Wa [mm]
1000  0  2  0  0  0  0  0  0  0
Nf P
0.68  0.33
****CALCULATED OUTPUTS ****
Brem[uGy/mAs@1m] Char[uGy/mAs@1m]
111.6818  2.03301
HVL1[cm AL] HVL2[cm AL] HVL1[cmCu] HVL2[cmCu] MeanE[keV] EffEAl[keV] EffECu[keV]
0.2347121  0.3871727  0.0078136  0.0152206  43.91659  30.40255  31.05806
**** CALCULATED SPECTRUM ****
Energy[keV]  N[keV cm^2 mAs]^-1 @ 1 meter
9  0.0623724
9.5  0.9003864
10  13.05701
10.5  59.83808
11  283.1588
11.5  912.903
12  2953.827
12.5  7011.108
13  16687.77
13.5  32688.12
14  64326.48
14.5  106355.4
15  176282
15.5  259504.4
16  383093.1
16.5  514297.7
17  691422.1
17.5  866311.1
18  1.086977e+6
18.5  1.298809e+6
19  1.552906e+6
19.5  1.784449e+6
20  2.053608e+6
20.5  2.289953e+6
21  2.556162e+6
21.5  2.784035e+6
22  3.035294e+6
22.5  3.245554e+6
23  3.473179e+6
23.5  3.660889e+6
24  3.858701e+6
24.5  4.006149e+6
25  4.161954e+6
25.5  4.296416e+6
26  4.435416e+6
26.5  4.537254e+6
27  4.642881e+6
27.5  4.723354e+6
28  4.804746e+6
28.5  4.858679e+6
29  4.916512e+6
29.5  4.942561e+6
30  4.970939e+6
30.5  4.983496e+6
31  5.000759e+6
31.5  5.001103e+6
32  5.003383e+6
32.5  4.991961e+6
33  4.979199e+6
33.5  4.954491e+6
34  4.931596e+6
34.5  4.898238e+6
35  4.864335e+6
35.5  4.822704e+6
36  4.781862e+6
36.5  4.736919e+6
37  4.691287e+6
37.5  4.640554e+6
38  4.592351e+6
38.5  4.536105e+6
39  4.481726e+6
39.5  4.425528e+6
40  4.371097e+6
40.5  4.311596e+6
41  4.253916e+6
41.5  4.194567e+6
42  4.134476e+6
42.5  4.073286e+6
43  4.013867e+6
43.5  3.953753e+6
44  3.893571e+6
44.5  3.832259e+6
45  3.771834e+6
45.5  3.712766e+6
46  3.653465e+6
46.5  3.593661e+6
47  3.535874e+6
47.5  3.475382e+6
48  3.416502e+6
48.5  3.359000e+6
49  3.302784e+6
49.5  3.244805e+6
50  3.188331e+6
50.5  3.132921e+6
51  3.076982e+6
51.5  3.021315e+6
52  2.967062e+6
52.5  2.914022e+6
53  2.860929e+6
53.5  2.808424e+6
54  2.756562e+6
54.5  2.705862e+6
55  2.654997e+6
55.5  2.604542e+6
56  2.555499e+6
56.5  2.505936e+6
57  2.457573e+6
57.5  2.410225e+6
58  6.356034e+6
58.5  2.316780e+6
59  2.270955e+6
59.5  9.182186e+6
60  2.180483e+6
60.5  2.135782e+6
61  2.092128e+6
61.5  2.049393e+6
62  2.006530e+6
62.5  1.964153e+6
63  1.922199e+6
63.5  1.882007e+6
64  1.841581e+6
64.5  1.801054e+6
65  1.761535e+6
65.5  1.722148e+6
66  1.683645e+6
66.5  1.645422e+6
67  3.893281e+6
67.5  1.569753e+6
68  1.532767e+6
68.5  1.496888e+6
69  2.055524e+6
69.5  1.424206e+6
70  1.343934e+6
70.5  1.311367e+6
71  1.278481e+6
71.5  1.246382e+6
72  1.214467e+6
72.5  1.183219e+6
73  1.151661e+6
73.5  1.120607e+6
74  1.090064e+6
74.5  1.058754e+6
75  1.028086e+6
75.5  997739.1
76  967244.6
76.5  936774.5
77  906926.5
77.5  877856.3
78  847518.1
78.5  817534.5
79  788167
79.5  758712.1
80  728634.3
80.5  699119.3
81  669697.2
81.5  640385.1
82  610693.6
82.5  581429.7
83  552255.2
83.5  521591.2
84  491563.6
84.5  462244.1
85  430174.6
85.5  397298.7
86  365091.1
86.5  333787.6
87  301566.8
87.5  269982
88  239039.5
88.5  188682.6
89  124445.6
89.5  61575.33
90  0
